"Freq [thz]","re(St(P1,P1)) []","im(St(P1,P1)) []","re(St(P1,P2)) []","im(St(P1,P2)) []","re(St(P2,P1)) []","im(St(P2,P1)) []","re(St(P2,P2)) []","im(St(P2,P2)) []"
0,0.463800245292077,0,0.536189187536365,0,0.536189188991557,0,0.46380007488915,0
0.0005,0.466115752452166,0.000647214082521184,0.533785948243161,-0.0115022835757301,0.533785948091622,-0.0115022823651169,0.466114167207515,0.000730851294522559
0.001,0.467319142511007,-0.000803156113277217,0.532310293034172,-0.0208408139778127,0.532310293029658,-0.0208408134519934,0.467313874503942,-0.000635779608646468
0.0015,0.468101334471541,-0.00240587652119677,0.531152366341907,-0.0299754559624952,0.531152366620519,-0.0299754555876587,0.468088618387138,-0.00216047712261046
0.002,0.468556154281187,-0.00407598789593904,0.530169132587994,-0.0390782731536997,0.530169132956749,-0.0390782729855651,0.4685331292594,-0.00374767790668233
0.0025,0.468852892826747,-0.005716714847552,0.529177838112431,-0.0482144986042884,0.52917783845916,-0.0482144985978255,0.468818192510674,-0.00530295449826597
0.003,0.469076577852778,-0.00732316087651707,0.528098926296415,-0.0573751140080649,0.528098926572439,-0.0573751141017892,0.469028556097609,-0.00682249986340427
0.0035,0.469267669033489,-0.00890593696623867,0.526898223153712,-0.0665442814756198,0.526898223347238,-0.0665442816165654,0.469204279203763,-0.00831734074756173
0.004,0.469446167634023,-0.0104757361598928,0.525560355635644,-0.0757094569282471,0.525560355754268,-0.0757094570778987,0.469365090140082,-0.00979832492295599
0.0045,0.469622364206617,-0.0120409907137507,0.524078047906047,-0.0848616409343387,0.524078047965941,-0.0848616410683075,0.469521131088584,-0.0112739251880217
0.005,0.469801623503006,-0.0136080673111991,0.522447667444676,-0.0939943249053667,0.522447667464094,-0.0939943250108952,0.469677709062874,-0.0127504809093892
0.0055,0.46998663290309,-0.0151817963443816,0.520667282029183,-0.10310257341802,0.520667282024824,-0.103102573490933,0.469837514358152,-0.0142327426477186
0.006,0.470178529442837,-0.0167659140732436,0.518735783495779,-0.112182395679729,0.518735783481034,-0.112182395721568,0.470001725614074,-0.0157243219363992
0.0065,0.470377501803149,-0.018363374947483,0.516652486914523,-0.121230345567281,0.516652486898915,-0.121230345582933,0.470170597072275,-0.0172280102294772
0.007,0.470583131412053,-0.0199765617749522,0.514416947933318,-0.130243276218288,0.514416947922635,-0.130243276214183,0.470343790715192,-0.0187459960005935
0.0075,0.470794596388487,-0.0216074253748086,0.512028881188122,-0.139218193553295,0.512028881184898,-0.139218193536135,0.47052057553165,-0.0202800114060474
0.008,0.471010799572056,-0.0232575775827837,0.50948812505432,-0.148152171326397,0.509488125058458,-0.148152171302324,0.470699953826649,-0.0218314319401675
0.0085,0.471230452574135,-0.0249283538489444,0.506794626981408,-0.157042303624869,0.506794626990818,-0.15704230359896,0.470880745417548,-0.0234013450338792
0.009,0.47145213331278,-0.0266208561001376,0.503948437431084,-0.165885679691232,0.50394843744226,-0.16588567966724,0.471061646342452,-0.0249905981644637
0.0095,0.471674326989326,-0.0283359828001114,0.500949707034642,-0.174679371742034,0.500949707043163,-0.174679371722292,0.471241271440431,-0.0265998334339462
0.01,0.471895456392953,-0.030074450701535,0.497798684709901,-0.183420430134554,0.497798684710844,-0.18342043011998,0.471418186289889,-0.0282295131996233
0.0105,0.47211738592355,-0.0317955295962282,0.494481537322348,-0.19215013893456,0.494481537316696,-0.192150138911267,0.471598309544517,-0.0298423372430301
0.011,0.472338947463022,-0.0335463479263671,0.491013625630576,-0.20081735936883,0.491013625618782,-0.20081735933602,0.471776416976,-0.0314825051346506
0.0115,0.472558624396241,-0.0353278383001961,0.487396387117671,-0.209419578129433,0.487396387100263,-0.209419578086344,0.471951059066669,-0.0331508265418111
0.012,0.472774848512373,-0.0371408687972449,0.4836312965331,-0.217954335380147,0.483631296510673,-0.21795433532606,0.472120740086504,-0.0348480465132317
0.0125,0.472986002507827,-0.0389862407065299,0.479719862778457,-0.226419224969027,0.479719862751673,-0.226419224903273,0.472283920804029,-0.0365748434455565
0.013,0.473190422581315,-0.0408646863545055,0.475663625830397,-0.234811894426791,0.475663625799977,-0.234811894348757,0.472439021278551,-0.0383318271623034
0.0135,0.473386401118213,-0.042776867026561,0.471464153715906,-0.243130044756294,0.471464153682625,-0.243130044665424,0.472584423728956,-0.0401195371083899
0.014,0.473572189461209,-0.0447233709857913,0.467123039554419,-0.251371430019376,0.467123039519102,-0.251371429915182,0.472718475474175,-0.0419384406631729
0.0145,0.473746000764079,-0.046704711592709,0.462641898680593,-0.259533856728417,0.462641898644106,-0.259533856610479,0.4728394919403,-0.0437889315747233
0.015,0.473906012925209,-0.0487213255294838,0.458022365860768,-0.26761518305079,0.458022365824013,-0.26761518291876,0.472945759729228,-0.0456713285178318
0.0155,0.474050371597356,-0.0507735711322053,0.453266092615341,-0.275613317835243,0.453266092579251,-0.275613317688848,0.473035539743599,-0.0475858737780087
0.016,0.474177193269924,-0.0528617268345649,0.448374744658388,-0.283526219469999,0.448374744623917,-0.283526219309043,0.473107070362745,-0.0495327320635081
0.0165,0.47428456841987,-0.0549859897262428,0.443349999464985,-0.29135189458299,0.443349999433102,-0.291351894407355,0.473158570664253,-0.051511989447167
0.017,0.474370564727186,-0.0571464742291586,0.438193543975732,-0.299088396595225,0.438193543947414,-0.299088396404873,0.473188243685698,-0.0535236524396022
0.0175,0.474433230350714,-0.059343210894612,0.43290707244705,-0.306733824138766,0.432907072423276,-0.306733823933739,0.47319427972107,-0.0555676471950683
0.018,0.4744705972599,-0.0615761453241883,0.42749228445484,-0.314286319351196,0.427492284436581,-0.314286319131613,0.473174859646361,-0.0576438188510262
0.0185,0.474480684617928,-0.0638451372171532,0.421950883058145,-0.32174406605875,0.421950883046362,-0.321744065824811,0.473128158268749,-0.0597519310022263
0.019,0.474461502211504,-0.0661499595468771,0.416284573128488,-0.329105287860552,0.41628457312412,-0.329105287612532,0.473052347693843,-0.061891665309853
0.0195,0.474411053922432,-0.0684902978686607,0.4104950598496,-0.336368246126524,0.410495059853561,-0.336368245864771,0.472945600705397,-0.0640626212460369
0.02,0.474327341235962,-0.0708657497611323,0.404584047391337,-0.343531237921642,0.404584047404508,-0.343531237646576,0.47280609415198,-0.0662643159737826
0.0205,0.474208366780777,-0.0732758244031844,0.398553237760649,-0.350592593869221,0.398553237783873,-0.350592593581328,0.472632012335071,-0.0684961843621146
0.021,0.474052137895339,-0.0757199422882053,0.392404329831591,-0.357550675965861,0.392404329865666,-0.357550675665694,0.472421550393098,-0.070757579136004
0.0215,0.473856670215229,-0.0781974350771379,0.386139018555501,-0.364403875360595,0.386139018601177,-0.364403875048764,0.472172917676022,-0.0730477711603883
0.022,0.473619991275989,-0.0807075455916619,0.37975899435166,-0.371150610110594,0.379758994409633,-0.371150609787766,0.4718843411051,-0.0753659498573664
0.0225,0.473340144125904,-0.083249427948558,0.373265942677934,-0.377789322925598,0.373265942748841,-0.377789322592488,0.471554068512564,-0.0777112237554148
0.023,0.47301519094309,-0.0858221478360662,0.366661543780179,-0.384318478912969,0.366661543864597,-0.384318478570338,0.471180371956034,-0.0800826211692475
0.0235,0.472643216651161,-0.0884246829327909,0.35994747261847,-0.390736563334987,0.35994747271691,-0.390736562983633,0.470761551002594,-0.0824790910087193
0.024,0.472222332527755,-0.091055923469452,0.353125398967531,-0.397042079389654,0.353125399080436,-0.397042079030409,0.47029593597757,-0.0848995037149664
0.0245,0.471750679800111,-0.0937146729335142,0.346196987688148,-0.403233546025944,0.346196987815893,-0.403233545659666,0.469781891173186,-0.0873426523217666
0.025,0.471226433221916,-0.0963996489164589,0.339163899165745,-0.409309495804026,0.339163899308631,-0.409309495431597,0.469217818012396,-0.0898072536399184
0.0255,0.470647804625626,-0.0991094841032003,0.332027789911747,-0.415268472810608,0.332027790070004,-0.415268472432921,0.468602158163348,-0.0922919495622432
0.026,0.470013046444463,-0.101842727402868,0.324790313322893,-0.421109030639095,0.324790313496678,-0.421109030257053,0.46793339660009,-0.0947953084866506
0.0265,0.469320455198365,-0.104597845219922,0.317453120593154,-0.426829730443856,0.317453120782552,-0.426829730058365,0.467210064605296,-0.0973158268545383
0.027,0.468568374938171,-0.107373222864287,0.310017861772527,-0.43242913907743,0.31001786197755,-0.43242913868939,0.466430742710934,-0.0998519308016527
0.0275,0.467755200642414,-0.110167166098937,0.30248618696655,-0.437905827319047,0.302486187187138,-0.43790582692935,0.46559406357303,-0.102401977918395
0.028,0.466879381561165,-0.112977902823104,0.294859747670076,-0.443258368202398,0.2948597479061,-0.44325836781192,0.464698714776799,-0.104964259116434
0.0285,0.465939424501489,-0.115803584889015,0.287140198228482,-0.448485335450121,0.287140198479746,-0.448485335059717,0.463743441568667,-0.107537000598376
0.029,0.464933897049133,-0.118642290049841,0.279329197419235,-0.453585302022028,0.279329197685477,-0.453585301632526,0.462727049511834,-0.110118365927138
0.0295,0.463861430721273,-0.121492024036279,0.271428410146456,-0.458556838783621,0.271428410427354,-0.458556838395817,0.46164840706229,-0.1127064581916
0.03,0.46272072404521,-0.124350722758968,0.2634395092409,-0.463398513301022,0.263439509536073,-0.463398512915677,0.460506448062323,-0.115299322265013
0.0305,0.461510545558103,-0.127216254633736,0.255364177357565,-0.468108888767984,0.255364177666576,-0.468108888385817,0.459300174148818,-0.11789494715263
0.031,0.460229736722987,-0.130086423026434,0.247204108962941,-0.472686523070207,0.247204109285303,-0.472686522691894,0.458028657073781,-0.120491268424914
0.0315,0.458877214756495,-0.132958968813959,0.238961012403776,-0.477129967991771,0.238961012738956,-0.477129967617938,0.456691040934768,-0.123086170732732
0.032,0.457451975363884,-0.135831573057852,0.230636612049045,-0.481437768568037,0.23063661239647,-0.48143776819926,0.455286544313045,-0.125677490400852
0.0325,0.455953095377184,-0.138701859786728,0.222232650496728,-0.485608462588994,0.222232650855785,-0.485608462225793,0.453814462317519,-0.1282630180961
0.033,0.454379735292469,-0.141567398883586,0.213750890836826,-0.489640580256574,0.213750891206873,-0.489640579899413,0.452274168532657,-0.130840501566541
0.0335,0.452731141702479,-0.144425709073996,0.20519311896201,-0.493532643999077,0.205193119342378,-0.493532643648362,0.450665116868762,-0.13340764844805
0.034,0.451006649621023,-0.147274261010944,0.196561145917135,-0.497283168445438,0.196561146307134,-0.497283168101517,0.448986843313172,-0.135962129134696
0.0345,0.449205684695821,-0.150110480452095,0.187856810278834,-0.500890660561671,0.187856810677759,-0.500890660224829,0.447238967581091,-0.138501579709396
0.035,0.447327765306668,-0.152931751525098,0.179081980556277,-0.504353619951425,0.179081980963412,-0.504353619621887,0.445421194664906,-0.141023604931345
0.0355,0.445372504546005,-0.155735420076504,0.170238557604162,-0.507670539322218,0.170238558018786,-0.507670539000148,0.443533316280992,-0.143525781276815
0.036,0.443339612079239,-0.15851879709981,0.161328477038914,-0.510839905118498,0.161328477460308,-0.510839904804,0.441575212213135,-0.146005660029963
0.0365,0.441228895882323,-0.161279162238123,0.152353711649044,-0.513860198322311,0.152353712076494,-0.51386019801543,0.439546851551812,-0.148460770420391
0.037,0.439040263854375,-0.164013767356874,0.143316273790555,-0.516729895421964,0.143316274223357,-0.516729895122688,0.437448293828674,-0.150888622804276
0.0375,0.436773725303274,-0.166719840182062,0.134218217758261,-0.519447469548672,0.134218218195729,-0.519447469256931,0.435279690045676,-0.153286711885976
0.038,0.434429392302409,-0.169394587999471,0.12506164212386,-0.522011391780791,0.125061642565327,-0.522011391496464,0.433041283598357,-0.155652519977145
0.0385,0.432007480916935,-0.172035201410351,0.115848692031557,-0.524420132614843,0.115848692476382,-0.524420132337756,0.430733411092856,-0.157983520290438
0.039,0.429508312298055,-0.174638858139084,0.106581561442047,-0.526672163602129,0.106581561889618,-0.526672163332063,0.428356503056279,-0.160277180265044
0.0395,0.426932313644069,-0.177202726888395,0.0972624953156504,-0.528765959149328,0.0972624957653869,-0.528765958886018,0.425911084540089,-0.162530964921339
0.04,0.424280019027025,-0.179723971237742,0.0878937917253935,-0.530699998481041,0.0878937921767539,-0.530699998224183,0.423397775616176,-0.164742340242082
0.0405,0.421552070084008,-0.182199753580579,0.0784778038908643,-0.532472767761857,0.0784778043433462,-0.532472767511111,0.420817291765303,-0.166908776577656
0.041,0.418749216572203,-0.184627239096246,0.0690169421236703,-0.534082762375032,0.0690169425768137,-0.534082762130024,0.418170444157592,-0.169027752072956
0.0415,0.415872316786995,-0.18700359975236,0.0595136756753994,-0.535528489354477,0.0595136761287898,-0.535528489114809,0.415458139824685,-0.171096756113603
0.042,0.41292233784247,-0.189326018333613,0.0499705344790193,-0.536808469966284,0.0499705349322892,-0.536808469731535,0.4126813817232,-0.17311329278926
0.0425,0.409900355813761,-0.191591692493028,0.040390110774737,-0.537921242435548,0.0403901112275672,-0.537921242205277,0.409841268689021,-0.175074884371858
0.043,0.406807555740753,-0.193797838821767,0.0307750606114262,-0.538865364813791,0.0307750610635474,-0.538865364587549,0.406938995281898,-0.176979074806653
0.0435,0.403645231492716,-0.195941696933694,0.0211281052148483,-0.539639417981821,0.0211281056660414,-0.539639417759147,0.403975851519797,-0.178823433214022
0.044,0.400414785493453,-0.198020533560978,0.0114520322140224,-0.540242008782345,0.0114520326641188,-0.540242008562779,0.400953222502267,-0.180605557399988
0.0445,0.397117728306592,-0.200031646657108,0.00174969671726517,-0.5406717732762,0.00174969716614634,-0.540671773059285,0.397872587922092,-0.18232307737344
0.045,0.393755678080629,-0.201972369503729,-0.00797597777040104,-0.540927380115536,-0.00797597732280433,-0.540927379900824,0.394735521464293,-0.18397365886806
0.0455,0.390330359853327,-0.203840074817827,-0.0177219985965523,-0.541007534026801,-0.0177219981502611,-0.541007533813855,0.391543690091508,-0.185555006866903
0.046,0.386843604715039,-0.205632178855788,-0.0274853033852239,-0.540910979395843,-0.0274853029402129,-0.540910979184247,0.3882988532146,-0.187064869127575
0.0465,0.383297348830492,-0.207346145510919,-0.0372627596428927,-0.540636503946974,-0.0372627591990926,-0.540636503736333,0.385002861747239,-0.188501039705895
0.047,0.379693632318501,-0.208979490401054,-0.047051164553843,-0.540182942507286,-0.0470511641111429,-0.540182942297235,0.381657657043093,-0.189861362475818
0.0475,0.376034597989014,-0.210529784942831,-0.0568472449718335,-0.539549180847031,-0.0568472445300838,-0.539549180637234,0.378265269714091,-0.191143734643351
0.048,0.372322489936836,-0.211994660409262,-0.066647657614601,-0.538734159586349,-0.0666476571736173,-0.53873415937651,0.374827818328136,-0.192346110252015
0.0485,0.368559651991261,-0.213371811967146,-0.0764489894673305,-0.537736878158163,-0.0764489890268968,-0.537736877948024,0.371347507984501,-0.193466503677292
0.049,0.364748526020786,-0.214659002690834,-0.0862477584007553,-0.536556398816529,-0.0862477579606289,-0.536556398605875,0.367826628765022,-0.194502993107334
0.0495,0.36089165009197,-0.215854067548777,-0.0960404140090682,-0.535191850679296,-0.0960404135689833,-0.535191850467958,0.364267554059109,-0.195453724006973
0.05,0.356991656481416,-0.216954917359173,-0.10582333867228,-0.533642433793439,-0.105823338231953,-0.533642433581299,0.360672738760479,-0.196316912561916
0.0505,0.353051269539766,-0.217959542710911,-0.115592848847104,-0.531907423211025,-0.115592848406238,-0.531907422998016,0.357044717333448,-0.197090849099693
0.051,0.349073303406508,-0.218866017845835,-0.125345196589813,-0.52998617306332,-0.125345196148105,-0.529986172849427,0.353386101746543,-0.197773901483735
0.0515,0.345060659574324,-0.2196725044982,-0.13507657131388,-0.527878120620182,-0.135076570871024,-0.527878120405447,0.349699579271149,-0.198364518476593
0.052,0.341016324301649,-0.220377255686935,-0.144783101784511,-0.525582790321532,-0.144783101340204,-0.525582790106048,0.345987910142891,-0.198861233068063
0.0525,0.336943365872038,-0.220978619456134,-0.154460858351447,-0.523099797767339,-0.154460857905395,-0.523099797551257,0.34225392508342,-0.199262665763607
0.053,0.332844931698937,-0.221475042558909,-0.16410585542066,-0.52042885365233,-0.164105854972584,-0.520428853435857,0.338500522680351,-0.199567527828103
0.0535,0.328724245274424,-0.221865074079453,-0.173714054164744,-0.517569767631325,-0.173714053714387,-0.517569767414721,0.33473066662311,-0.199774624479629
0.054,0.324584602960495,-0.222147368987837,-0.183281365470994,-0.514522452100971,-0.183281365018123,-0.514522451884549,0.330947382792561,-0.199882858027538
0.0545,0.320429370621531,-0.222320691621756,-0.192803653125279,-0.511286925883448,-0.192803652669695,-0.511286925667575,0.327153756202435,-0.199891230948725
0.055,0.316261980096654,-0.222383919089036,-0.20227673722894,-0.507863317797673,-0.20227673677048,-0.507863317582763,0.323352927790691,-0.199798848895544
0.0555,0.312085925510765,-0.222336044584372,-0.21169639784502,-0.504251870103464,-0.211696397383564,-0.504251869889977,0.319548091059226,-0.199604923628443
0.056,0.307904759423252,-0.222176180613347,-0.221058378869211,-0.500452941804169,-0.221058378404687,-0.500452941592609,0.31574248856054,-0.19930877586591
0.0565,0.303722088813499,-0.221903562116382,-0.230358392119942,-0.496467011793351,-0.230358391652329,-0.49646701158426,0.311939408230289,-0.198909838043952
0.057,0.299541570902606,-0.221517549484843,-0.239592121641071,-0.49229468183128,-0.239592121170408,-0.492294681625236,0.308142179565022,-0.198407656976857
0.0575,0.295366908810984,-0.221017631461101,-0.2487552282097,-0.487936679337192,-0.248755227736085,-0.487936679134801,0.304354169644756,-0.1978018964106
0.058,0.291201847051853,-0.22040342791392,-0.257843354040628,-0.483393859983594,-0.257843353564224,-0.483393859785487,0.300578779000527,-0.197092339459832
0.0585,0.287050166861026,-0.219674692480102,-0.266852127678029,-0.478667210079234,-0.266852127199068,-0.478667209886063,0.296819437327534,-0.196278890919012
0.059,0.28291568136386,-0.218831315062923,-0.275777169063969,-0.473757848727825,-0.275777168582754,-0.473757848540253,0.293079599045061,-0.195361579437857
0.0595,0.278802230580694,-0.217873324177462,-0.284614094772455,-0.468667029750084,-0.284614094289361,-0.468667029568782,0.289362738704941,-0.194340559550975
0.06,0.274713676272704,-0.216800889132547,-0.293358523396774,-0.463396143357267,-0.293358522912253,-0.463396143182907,0.285672346251013,-0.193216113551195
0.0605,0.270653896630713,-0.215614322038684,-0.302006081077028,-0.457946717565033,-0.302006080591607,-0.457946717398279,0.282011922132713,-0.191988653195872
0.061,0.266626780810146,-0.214314079630985,-0.310552407153892,-0.452320419337171,-0.310552406668173,-0.452320419178674,0.278384972276685,-0.190658721235206
0.0615,0.262636223316102,-0.212900764895824,-0.318993159933821,-0.446519055449572,-0.318993159448487,-0.446519055299963,0.274795002921139,-0.189226992751432
0.062,0.258686118243266,-0.211375128489712,-0.327324022550203,-0.44054457306565,-0.327324022066008,-0.440544572925534,0.271245515318482,-0.187694276297627
0.0625,0.254780353376265,-0.209738069938641,-0.335540708904179,-0.434399060015385,-0.335540708421955,-0.43439905988533,0.267740000312689,-0.186061514824818
0.063,0.250922804156956,-0.207990638606064,-0.343638969668298,-0.428084744771112,-0.343638969188946,-0.428084744651646,0.26428193279876,-0.184329786386075
0.0635,0.247117327526095,-0.206134034417543,-0.351614598335495,-0.421603996114289,-0.35161459785999,-0.421603996005891,0.260874766072604,-0.182500304606375
