"Freq [thz]","re(St(P1,P1)) []","im(St(P1,P1)) []","re(St(P1,P2)) []","im(St(P1,P2)) []","re(St(P2,P1)) []","im(St(P2,P1)) []","re(St(P2,P2)) []","im(St(P2,P2)) []"
0,5.03506439633291E-008,0,0.999999954577106,0,0.999999954593477,0,4.8209662048028E-008,0
0.0005,0.000245469802625187,0.014738783512751,0.999758329958415,-0.0155248638760916,0.999758329958522,-0.0155248638760739,0.000237234989304613,0.014738913146612
0.001,0.00096366384370572,0.0294547855484595,0.999034091902856,-0.0310267957644363,0.999034091902159,-0.031026795764415,0.000965604838968626,0.0294547229463404
0.0015,0.00216563103227518,0.0441251769461068,0.997829400697469,-0.0464831544475315,0.99782940069682,-0.0464831544475004,0.00216983562839557,0.0441249732441857
0.002,0.0038427492109131,0.0587275735152115,0.996147835384207,-0.0618714308955299,0.996147835383624,-0.0618714308954926,0.00385138970135754,0.0587270182789705
0.0025,0.00599138337857949,0.0732396554098429,0.993994366499921,-0.0771693679830467,0.99399436649942,-0.0771693679830077,0.00600396079693757,0.0732386426832625
0.003,0.00860436602957584,0.0876397860688964,0.991375306818857,-0.092355264534977,0.991375306818451,-0.0923552645349379,0.00862209065551076,0.0876380721846073
0.0035,0.0116742005363768,0.101906763281803,0.988298284299975,-0.107407910546723,0.988298284299677,-0.107407910546689,0.0116980197126893,0.10190407507933
0.004,0.0151920250656035,0.116020034287688,0.984772181075865,-0.122306739531444,0.984772181075682,-0.122306739531421,0.0152228452162773,0.116016057883885
0.0045,0.0191477776362747,0.129959774101736,0.980807071231803,-0.137031912891518,0.980807071231739,-0.137031912891509,0.0191864806100721,0.129954155169751
0.005,0.0235302734778129,0.143706967284964,0.976414150668342,-0.15156440219852,0.976414150668399,-0.151564402198529,0.0235777184518662,0.143699312309117
0.0055,0.0283272829608845,0.157243482654883,0.97160566046612,-0.165886064057284,0.971605660466293,-0.165886064057314,0.0283843057543552,0.157233360482526
0.006,0.0335256140504017,0.170552139850844,0.96639480473465,-0.179979706756994,0.966394804734932,-0.179979706757048,0.0335930258361068,0.170539083411922
0.0065,0.039111199026577,0.183616767264331,0.960795663942449,-0.193829148263803,0.960795663942827,-0.193829148263881,0.0391897849419235,0.183600275413319
0.007,0.0450691846275459,0.196422251040182,0.954823104744543,-0.207419265271115,0.954823104744998,-0.207419265271216,0.0451597024470229,0.196401790494307
0.0075,0.0513840246440485,0.208954574997517,0.948492687326748,-0.220736033159332,0.948492687327257,-0.220736033159454,0.0514872035757447,0.208929582350782
0.008,0.0580395739779381,0.221200851447927,0.941820571272695,-0.233766556843632,0.941820571273227,-0.233766556843768,0.0581561136110536,0.221170735242469
0.0085,0.0650191831952169,0.233149343008379,0.934823420930345,-0.246499092607808,0.934823420930866,-0.24649909260795,0.0651497526106394,0.233113485845699
0.009,0.0723057926442167,0.244789475617203,0.927518311211067,-0.258923061132941,0.927518311211535,-0.258923061133077,0.0724510296928779,0.244747236292561
0.0095,0.0798820252643007,0.256111843062227,0.919922634697976,-0.271029052030302,0.919922634698344,-0.271029052030416,0.0800425360138089,0.256062558706237
0.01,0.0877302772767758,0.267108203419285,0.912054010873267,-0.282808820277176,0.912054010873481,-0.282808820277247,0.087906635624024,0.267051191631542
0.0105,0.0958316809162777,0.277772857859132,0.903931501576732,-0.294256732501778,0.903931501576961,-0.294256732501854,0.0960242300392662,0.277707512187042
0.011,0.104169679340624,0.288098569485927,0.895571523478488,-0.305365497662103,0.895571523478734,-0.305365497662184,0.104378887662241,0.288024198386267
0.0115,0.112726513976493,0.298080482104679,0.886991852437502,-0.316130261201557,0.886991852437765,-0.316130261201643,0.112952813912178,0.297996383932605
0.012,0.121484526426683,0.307714818040297,0.878210164002259,-0.326547248167548,0.878210164002541,-0.32654724816764,0.121728314594668,0.307620283228988
0.0125,0.130426229182141,0.316998842500027,0.869243962617741,-0.336613727534041,0.869243962618041,-0.336613727534139,0.130687866776697,0.316893155660095
0.013,0.139534371092426,0.325930823401432,0.86011051605788,-0.346327971976173,0.8601105160582,-0.346327971976278,0.139814184452241,0.325813265311943
0.0135,0.148791997268247,0.334509987342837,0.850826795327377,-0.355689213740005,0.850826795327718,-0.355689213740118,0.149090278836951,0.33437983673352
0.014,0.158182502078584,0.34273647250063,0.841409420463716,-0.36469759701365,0.841409420464078,-0.36469759701377,0.158499513766173,0.342593006719043
0.0145,0.167689722815114,0.350611274054879,0.831874600636213,-0.373354137427117,0.831874600636598,-0.373354137427244,0.168025631889588,0.350453799729655
0.015,0.177297803230296,0.358136211405116,0.822238134850277,-0.381660632525431,0.822238134850685,-0.381660632525566,0.177652889500669,0.357963974207343
0.0155,0.186991542420419,0.365313842083359,0.812515297995703,-0.389619673779937,0.812515297996134,-0.389619673780082,0.187365935947824,0.3651261455246
0.016,0.196756154236844,0.372147436623081,0.802720875352298,-0.39723453533136,0.802720875352753,-0.397234535331514,0.19714998487133,0.371943577341261
0.0165,0.206577411566559,0.37864091184114,0.792869106820219,-0.404509144201455,0.792869106820699,-0.404509144201619,0.206990781610083,0.378420193583852
0.017,0.216441650195065,0.384798778585897,0.782973669349303,-0.411448022270015,0.782973669349809,-0.41144802227019,0.216874634458491,0.384560513903168
0.0175,0.226335785422102,0.390626088193825,0.773047659871756,-0.418056232496297,0.773047659872288,-0.418056232496483,0.226788432185814,0.390369599636326
0.018,0.23624732463416,0.396128379833224,0.763103582644804,-0.424339326179828,0.763103582645363,-0.424339326180027,0.23671965677938,0.39585300098017
0.0185,0.246164375717381,0.401311629105341,0.753153340810099,-0.430303291501995,0.753153340810686,-0.430303291502207,0.246656391913997,0.401016705471685
0.019,0.256075651564842,0.406182198190276,0.743208231875315,-0.435954503619261,0.743208231875929,-0.435954503619486,0.256587327482614,0.405867088027504
0.0195,0.265970470982589,0.41074678777673,0.733278946804583,-0.441299676543692,0.733278946805225,-0.441299676543931,0.266501760510556,0.410410862774354
0.02,0.275838756310527,0.415012390971867,0.723375572398859,-0.446345817006232,0.72337557239953,-0.446345817006486,0.276389592775039,0.414655036864887
0.0205,0.285671028075551,0.418986249347787,0.713507596647661,-0.45110018045901,0.713507596648362,-0.45110018045928,0.286241325449687,0.418606866434948
0.021,0.295458396990295,0.422675811244036,0.703683916738156,-0.455570229336099,0.703683916738886,-0.455570229336386,0.296048051088724,0.422273814821671
0.0215,0.305192553603103,0.426088692411591,0.693912849415527,-0.459763593658185,0.693912849416287,-0.45976359365849,0.305801443257356,0.425663513127839
0.022,0.314865755894234,0.429232639052659,0.684202143399256,-0.46368803403551,0.684202143400046,-0.463688034035833,0.3154937441041,0.428783723186945
0.0225,0.32447081510042,0.432115493282692,0.674558993572857,-0.467351407095497,0.674558993573678,-0.467351407095839,0.32511775015779,0.431642302955332
0.023,0.334001080035262,0.434745161016162,0.664990056679326,-0.470761633336616,0.664990056680178,-0.470761633336978,0.334666796617334,0.434247174332978
0.0235,0.343450420157008,0.437129582255754,0.655501468270448,-0.473926667388092,0.65550146827133,-0.473926667388475,0.344134740386314,0.43660629339251
0.024,0.352813207618453,0.439276703745751,0.646098860675032,-0.476854470636214,0.646098860675945,-0.476854470636619,0.353515942087599,0.438727622977145
0.0245,0.362084298516323,0.441194453934193,0.636787381768443,-0.479552986161755,0.636787381769386,-0.479552986162183,0.362805247275829,0.440619107612026
0.025,0.371259013539945,0.442890720174919,0.62757171434345,-0.482030115919548,0.627571714344425,-0.48203011592,0.371997967047956,0.442288650659922
0.0255,0.38033311820146,0.444373328089529,0.618456095899943,-0.484293700080164,0.618456095900948,-0.484293700080639,0.381089858234464,0.443744093641155
0.026,0.389302802812621,0.445650023000446,0.609444338688305,-0.486351498444798,0.60944433868934,-0.486351498445299,0.390077103336643,0.44499319762878
0.0265,0.398164662356366,0.446728453339569,0.600539849858093,-0.488211173837741,0.600539849859159,-0.488211173838268,0.398956290358421,0.446043626623277
0.027,0.406915676385249,0.447616155932034,0.591745651579833,-0.489880277375859,0.591745651580929,-0.489880277376414,0.407724392665085,0.446902932806113
0.0275,0.415553189063329,0.448320543051378,0.583064401023177,-0.491366235511277,0.583064401024303,-0.49136623551186,0.41637874898573,0.447578543568227
0.028,0.424074889453517,0.448848891140604,0.574498410089351,-0.492676338741637,0.574498410090506,-0.492676338742249,0.424917043661643,0.448077750207736
0.0285,0.432478792138648,0.449208331093093,0.566049664809511,-0.493817731881803,0.566049664810696,-0.493817731882445,0.433337287229059,0.448407698190602
0.029,0.440763218251736,0.449405839987934,0.557719844333495,-0.494797405791438,0.557719844334708,-0.49479740579211,0.441637797411915,0.448575378868601
0.0295,0.448926776979024,0.44944823417569,0.549510339445269,-0.495622190454394,0.54951033944651,-0.495622190455098,0.449817180588311,0.448587622550422
0.03,0.45696834758852,0.449342163612954,0.541422270552348,-0.496298749308156,0.541422270553616,-0.496298749308893,0.457874313783498,0.448451092824028
0.0305,0.464887062026746,0.449094107346954,0.533456505106404,-0.4968335747245,0.533456505107698,-0.496833574725269,0.465808327232203,0.44817228203136
0.031,0.472682288117377,0.44871037005493,0.525613674421349,-0.497232984545978,0.525613674422669,-0.49723298454678,0.473618587544015,0.44775750779989
0.0315,0.480353613387278,0.448197079546832,0.517894189863372,-0.497503119586716,0.517894189864718,-0.497503119587553,0.481304681497415,0.447212910539419
0.032,0.487900829538137,0.447560185144068,0.510298258394701,-0.497649942010135,0.510298258396072,-0.497649942011007,0.488866400480661,0.446544451816649
0.0325,0.495323917575364,0.44680545685138,0.502825897459409,-0.497679234500596,0.502825897460804,-0.497679234501504,0.496303725591238,0.445757913524444
0.033,0.502623033600188,0.445938485243416,0.495476949205334,-0.49759660015048,0.495476949206752,-0.497596600151424,0.503616813399797,0.444858897767218
0.0335,0.509798495265826,0.444964681992173,0.488251094041225,-0.497407462988754,0.488251094042664,-0.497407462989735,0.51080598237948,0.443852827388429
0.034,0.516850768894205,0.443889280966005,0.48114786353264,-0.497117069081706,0.4811478635341,-0.497117069082725,0.51787169999708,0.44274494707079
0.0345,0.523780457245958,0.442717339835499,0.474166652643901,-0.496730488141028,0.474166652645381,-0.496730488142084,0.524814570458757,0.441540324944322
0.035,0.530588287933154,0.441453742125931,0.467306731336615,-0.496252615578939,0.467306731338113,-0.496252615580034,0.531635323099735,0.440243854641876
0.0355,0.53727510246154,0.440103199660398,0.460567255538043,-0.495688174954369,0.46056725553956,-0.495688174955502,0.538334801404747,0.438860257746087
0.036,0.543841845886783,0.438670255341937,0.453947277494805,-0.495041720758453,0.453947277496337,-0.495041720759626,0.544913952643663,0.437394086575981
0.0365,0.550289557067401,0.437159286226986,0.447445755529277,-0.49431764149166,0.447445755530825,-0.494317641492872,0.551373818104971,0.435849727265494
0.037,0.556619359495548,0.43557450684644,0.441061563217519,-0.49352016298875,0.441061563219081,-0.493520162990001,0.557715523908223,0.434231403090059
0.0375,0.562832452685738,0.433919972734262,0.434793498008676,-0.492653351951482,0.43479349801025,-0.492653351952772,0.563940272375495,0.43254317800116
0.038,0.568930104100706,0.432199584127103,0.428640289306664,-0.491721119652482,0.428640289308249,-0.491721119653812,0.570049333941034,0.430788960332216
0.0385,0.574913641593064,0.430417089801708,0.422600606035525,-0.490727225777037,0.422600606037121,-0.490727225778406,0.576044039577662,0.428972506642531
0.039,0.580784446341016,0.428576091020022,0.416673063710192,-0.489675282372648,0.416673063711796,-0.489675282374056,0.581925773718201,0.427097425669137
0.0395,0.586543946256267,0.426680045554791,0.410856231034549,-0.488568757879168,0.41085623103616,-0.488568757880615,0.587695967649992,0.425167182359291
0.04,0.592193609842279,0.424732271771222,0.405148636048678,-0.48741098121501,0.405148636050295,-0.487410981216497,0.593356093360599,0.423185101959148
0.0405,0.597734940481159,0.422735952742792,0.399548771847004,-0.486205145897528,0.399548771848625,-0.486205145899054,0.598907657812977,0.421154374136638
0.041,0.60316947112779,0.420694140381644,0.394055101888768,-0.484954314177964,0.394055101890392,-0.484954314179529,0.604352197628628,0.419078057118962
0.0415,0.608498759390166,0.418609759566215,0.388666064921877,-0.483661421173596,0.388666064923502,-0.483661421175199,0.609691274157697,0.416959081827321
0.042,0.613724382975403,0.416485612250726,0.383380079540688,-0.482329278981707,0.383380079542312,-0.482329278983348,0.614926468915422,0.414800255993475
0.0425,0.618847935481414,0.414324381543053,0.378195548397756,-0.480960580761855,0.378195548399378,-0.480960580763533,0.620059379364888,0.41260426824462
0.043,0.623871022514864,0.412128635739155,0.373110862088959,-0.479557904774636,0.373110862090578,-0.479557904776351,0.625091615026657,0.410373692144751
0.0435,0.628795258116635,0.409900832303828,0.368124402730773,-0.478123718366674,0.368124402732387,-0.478123718368425,0.630024793896482,0.408110990182257
0.044,0.633622261476744,0.40764332178896,0.363234547247788,-0.476660381893012,0.363234547249395,-0.476660381894797,0.634860539152993,0.405818517694901
0.0445,0.638353653921325,0.405358351681752,0.35843967038787,-0.475170152569354,0.35843967038947,-0.475170152571174,0.639600476137941,0.403498526724649
0.045,0.642991056155019,0.403048070176548,0.353738147481647,-0.473655188247806,0.353738147483236,-0.473655188249659,0.644246229592312,0.401153169795971
0.0455,0.647536085742831,0.400714529864975,0.349128356962263,-0.47211755111079,0.349128356963842,-0.472117551112676,0.648799421132328,0.398784503612321
0.046,0.651990354816231,0.398359691340073,0.344608682660663,-0.470559211278818,0.344608682662229,-0.470559211280735,0.653261666950101,0.396394492666446
0.0465,0.656355467989008,0.395985426710922,0.3401775158909,-0.468982050328627,0.340177515892452,-0.468982050330574,0.657634575724393,0.393985012761053
0.047,0.66063302046907,0.39359352302508,0.335833257339291,-0.467387864718982,0.335833257340827,-0.467387864720958,0.661919746727679,0.391557854437138
0.0475,0.664824596353106,0.391185685596833,0.331574318770526,-0.465778369122143,0.331574318772044,-0.465778369124147,0.666118768116385,0.389114726307957
0.048,0.668931767091695,0.388763541239858,0.327399124563159,-0.464155199659594,0.32739912456466,-0.464155199661625,0.670233215391856,0.386657258297273
0.0485,0.6729560901131,0.386328641403468,0.323306113086257,-0.462519917041213,0.323306113087737,-0.462519917043269,0.674264650020293,0.384187004781023
0.049,0.676899107594652,0.383882465212096,0.319293737928307,-0.460874009607511,0.319293737929766,-0.460874009609591,0.678214618200525,0.381705447632078
0.0495,0.68076234537123,0.381426422408077,0.31536046898891,-0.459218896275034,0.315360468990346,-0.459218896277136,0.682084649769103,0.37921399916815
0.05,0.684547311970952,0.378961856198193,0.311504793443143,-0.457555929385359,0.311504793444555,-0.457555929387481,0.685876257232824,0.376714005003325
0.0505,0.688255497768765,0.37649004600475,0.307725216587912,-0.455886397458479,0.307725216589298,-0.455886397460619,0.689590934919354,0.374206746803979
0.051,0.691888374249184,0.374012210122265,0.304020262579078,-0.454211527851628,0.304020262580438,-0.454211527853786,0.693230158237161,0.371693444950173
0.0515,0.695447393369937,0.371529508281035,0.300388475067588,-0.452532489324861,0.300388475068919,-0.452532489327034,0.69679538303655,0.369175261103811
0.052,0.698933987018809,0.369043044119144,0.29682841774234,-0.45085039451489,0.296828417743643,-0.450850394517076,0.700288045064024,0.366653300685092
0.0525,0.702349566556431,0.366553867564562,0.293338674787059,-0.449166302318883,0.293338674788332,-0.44916630232108,0.703709559502748,0.364128615258949
0.053,0.705695522438228,0.36406297712919,0.289917851257953,-0.447481220190054,0.289917851259195,-0.44748122019226,0.707061320592297,0.361602204833323
0.0535,0.708973223909183,0.361571322116801,0.286564573388528,-0.445796106347002,0.286564573389737,-0.445796106349215,0.710344701321347,0.359075020071217
0.054,0.712184018765475,0.359079804746941,0.283277488827505,-0.444111871898863,0.28327748882868,-0.444111871901081,0.71356105318734,0.356547964418616
0.0545,0.71532923317744,0.356589282196902,0.280055266815395,-0.442429382888406,0.280055266816537,-0.442429382890627,0.716711706017597,0.354021896150385
0.055,0.718410171568677,0.354100568563978,0.276896598304933,-0.44074946225526,0.276896598306039,-0.440749462257482,0.719797967846657,0.351497630336357
0.0555,0.721428116546474,0.351614436750218,0.273800196030186,-0.439072891721512,0.273800196031256,-0.439072891723732,0.722821124845034,0.348975940729841
0.056,0.72438432887904,0.349131620271944,0.270764794528877,-0.43740041360194,0.270764794529912,-0.437400413604156,0.725782441294876,0.346457561580813
0.0565,0.72728004751536,0.346652814996299,0.267789150122109,-0.435732732541149,0.267789150123106,-0.435732732543359,0.728683159608312,0.343943189376071
0.057,0.730116489643772,0.344178680807106,0.264872040855392,-0.434070517179896,0.264872040856352,-0.434070517182097,0.731524500384616,0.341433484508635
0.0575,0.732894850785631,0.341709843202303,0.26201226640463,-0.432414401752872,0.262012266405552,-0.432414401755062,0.734307662502527,0.338929072878655
0.058,0.735616304920694,0.339246894825208,0.259208647950427,-0.430764987620209,0.259208647951311,-0.430764987622385,0.737033823244366,0.3364305474281
0.0585,0.73828200464111,0.336790396931839,0.256460028023855,-0.429122844734929,0.2564600280247,-0.429122844737089,0.739704138448821,0.333938469611454
0.059,0.740893081331091,0.334340880796503,0.253765270326591,-0.427488513048565,0.253765270327396,-0.427488513050706,0.742319742689497,0.33145337080463
0.0595,0.743450645369592,0.331898849057802,0.251123259528118,-0.4258625038571,0.251123259528885,-0.42586250385922,0.744881749476535,0.328975753654253
0.06,0.74595578635351,0.329464777007202,0.248532901042498,-0.424245301089386,0.248532901043225,-0.424245301091483,0.747391251478817,0.32650609336948
0.0605,0.748409573339083,0.327039113822237,0.245993120787002,-0.422637362540104,0.24599312078769,-0.422637362542175,0.749849320764449,0.324044838958406
0.061,0.750813055099379,0.324622283746387,0.243502864924765,-0.421039121049337,0.243502864925414,-0.421039121051378,0.752257009057392,0.321592414411121
0.0615,0.753167260395891,0.322214687217626,0.241061099593418,-0.419450985630731,0.241061099594029,-0.419450985632741,0.754615348008278,0.3191492198314
0.062,0.755473198262428,0.319816701947578,0.238666810621526,-0.417873342550209,0.238666810622098,-0.417873342552185,0.756925349477582,0.31671563251898
0.0625,0.757731858299628,0.317428683953163,0.236319003234513,-0.416306556357116,0.236319003235048,-0.416306556359055,0.759188005829502,0.314292008004291
0.063,0.759944210978552,0.315050968542571,0.234016701751624,-0.41475097086965,0.23401670175212,-0.414750970871551,0.761404290234975,0.311878681037498
0.0635,0.762111207951924,0.312683871257346,0.231758949275338,-0.413206910116359,0.231758949275797,-0.413206910118219,0.763575156982427,0.309475966533625
0.064,0.764233782371738,0.310327688772302,0.229544807374562,-0.411674679235442,0.229544807374986,-0.411674679237258,0.765701541794962,0.307084160475492
0.0645,0.766312849212001,0.307982699754947,0.22737335576279,-0.410154565333536,0.227373355763177,-0.410154565335305,0.767784362152764,0.304703540776126
