"Freq [thz]","re(St(P1,P1)) []","im(St(P1,P1)) []","re(St(P1,P2)) []","im(St(P1,P2)) []","re(St(P2,P1)) []","im(St(P2,P1)) []","re(St(P2,P2)) []","im(St(P2,P2)) []"
0,0.265593698732118,0,0.734418599036871,0,0.734418599444325,0,0.265593696723954,0
0.0005,0.265988286678257,0.00246689028217646,0.734002984115851,-0.0066642087638242,0.734002984076983,-0.00666420850193178,0.265988238987906,0.00246725236298629
0.001,0.266654309829193,0.00457754719751451,0.733306288329344,-0.0129724212773644,0.73330628834214,-0.0129724212374601,0.266654119515961,0.0045783130656905
0.0015,0.267459759986024,0.00634480403571904,0.73245018245105,-0.0189378448488828,0.7324501824248,-0.0189378448528219,0.267459383911018,0.00634605757275215
0.002,0.268235072577521,0.00783863841251999,0.731605519840098,-0.0246283177555364,0.731605519788547,-0.0246283177354575,0.268234517301842,0.00784043071614254
0.0025,0.268925256594732,0.00916320407974251,0.730827129568641,-0.0301499395075589,0.730827129531055,-0.0301499394623847,0.268924531083608,0.00916555444828777
0.003,0.269527662184223,0.0103947526858341,0.730116637363258,-0.0355790804300298,0.730116637350741,-0.0355790803815279,0.269526766212797,0.0103976666919393
0.0035,0.270058964013423,0.0115804523249509,0.72945704318337,-0.0409624095594977,0.729457043189034,-0.040962409522549,0.270057890044811,0.0115839312671815
0.004,0.270539410586236,0.0127467424352512,0.728828201558108,-0.0463260216291102,0.728828201571428,-0.0463260216082918,0.270538146605361,0.0127507865230514
0.0045,0.270986946740287,0.0139073349261662,0.728212350110772,-0.0516835109601173,0.728212350123649,-0.0516835109538712,0.27098547797445,0.013911944229487
0.005,0.271415811422456,0.0150686981916008,0.727595378673359,-0.0570413555121615,0.727595378681166,-0.0570413555165585,0.271414121274241,0.0150738729428742
0.0055,0.271836782838005,0.0162333581127855,0.726966565869219,-0.062402136545008,0.726966565870133,-0.0624021365558416,0.271834853413532,0.0162390988247881
0.006,0.27225785844817,0.01740176759961,0.726317915149657,-0.0677663666572997,0.726317915143713,-0.0677663666709901,0.272255670881594,0.01740807512239
0.0065,0.272684931324234,0.0185733332636079,0.725643497518822,-0.0731335001664106,0.725643497507152,-0.0731335001802778,0.272682465991626,0.018580208815158
0.007,0.27312234067383,0.019746969005488,0.724938915214971,-0.07850248247661,0.72493891519929,-0.0785024824888653,0.27311957734101,0.0197544141887053
0.0075,0.273573287185242,0.0209213897493848,0.724200895445289,-0.0838720444091465,0.724200895427556,-0.0838720444187805,0.273570205112998,0.0209294065615999
0.008,0.274040136415329,0.0220952638502749,0.723426992378999,-0.0892408566729018,0.723426992361228,-0.0892408566795491,0.274036714435721,0.0221038546890694
0.0085,0.274524637635082,0.0232672890948216,0.72261537134451,-0.0946076080420494,0.722615371328658,-0.094607608045864,0.274520854207553,0.0232764567624687
0.009,0.275028081312427,0.0244362276951541,0.721764653005111,-0.0999710421849265,0.721764652993015,-0.0999710421864767,0.275023914565613,0.0244459754030713
0.0095,0.275551412794427,0.0256009195709315,0.720873800550451,-0.105329972351737,0.720873800543802,-0.105329972351923,0.275546840557756,0.0256112509449237
0.01,0.276095314886307,0.0267602844366806,0.719942037563195,-0.110683284482038,0.719942037563523,-0.110683284482025,0.276090314714322,0.026771203523357
0.0105,0.276675293899898,0.0280081572946638,0.718929422084478,-0.116077506473401,0.718929422084866,-0.116077506472524,0.276670082076715,0.0280195129753715
0.011,0.277280967604076,0.0292433136005351,0.717875190673055,-0.121456652459059,0.717875190673607,-0.121456652457352,0.277275520211261,0.0292550949172032
0.0115,0.277911991986034,0.0304652549363122,0.716779724101826,-0.126820688475361,0.716779724102635,-0.126820688472868,0.27790628359171,0.0304774514816013
0.012,0.278568012837777,0.0316734960079904,0.715643359495658,-0.132169573535323,0.715643359496805,-0.132169573532097,0.278562016513138,0.0316860980365477
0.0125,0.279248666408905,0.0328675648684573,0.714466395747068,-0.137503255696062,0.714466395748627,-0.137503255692163,0.279242353752944,0.0328805634058441
0.013,0.279953580061496,0.0340470031022333,0.713249098804195,-0.142821669194226,0.713249098806226,-0.142821669189717,0.279946921233627,0.0340603900509027
0.0135,0.280682372924595,0.0352113659724912,0.7119917067081,-0.148124732498484,0.711991706710656,-0.148124732493434,0.280675336684858,0.0352251342142351
0.014,0.281434656545998,0.0363602225309912,0.710694434295759,-0.153412347132247,0.71069443429888,-0.153412347126722,0.281427210302425,0.0363743660253092
0.0145,0.282210035538983,0.0374931556917092,0.709357477517293,-0.158684397129352,0.709357477521012,-0.158684397123423,0.282202145401737,0.0375076695695977
0.015,0.283008108221853,0.0386097622690942,0.707981017341706,-0.163940748998309,0.707981017346047,-0.163940748992046,0.282999739063645,0.0386246429217956
0.0155,0.283828467248172,0.0397096529820197,0.706565223244965,-0.169181252085151,0.706565223249943,-0.169181252078621,0.28381958277049,0.0397248981443197
0.016,0.284670700225758,0.0407924524246198,0.705110256288788,-0.17440573923984,0.705110256294414,-0.174405739233108,0.284661263030387,0.0408080612523264
0.0165,0.285534390322579,0.0418577990053087,0.703616271808704,-0.179614027705635,0.703616271814978,-0.179614027698765,0.285524361987868,0.0418737721465993
0.017,0.286419116857831,0.0429053448553947,0.702083421736548,-0.18480592016432,0.702083421743469,-0.184805920157373,0.286408458019173,0.0429216845157652
0.0175,0.287324455876642,0.043934755708769,0.700511856586612,-0.189981205882383,0.70051185659417,-0.189981205875414,0.287313126310587,0.0439514657093664
0.018,0.288249980706927,0.0449457107542414,0.698901727136417,-0.195139661913997,0.6989017271446,-0.195139661907062,0.288237939418373,0.0449627965834182
0.0185,0.289195262497108,0.0459379024621504,0.697253185833453,-0.200281054325986,0.697253185842244,-0.200281054319134,0.289182467808994,0.0459553713201193
0.019,0.290159870733529,0.0469110363869293,0.695566387958399,-0.205405139417821,0.695566387967778,-0.2054051394111,0.290146280378459,0.0469288972234538
0.0195,0.29114337373652,0.0478648309473446,0.69384149257382,-0.210511664916356,0.693841492583766,-0.210511664909808,0.291128944949769,0.0478830944924414
0.02,0.292145339134253,0.048799017186161,0.692078663285347,-0.215600371130402,0.692078663295834,-0.215600371124067,0.292130028747583,0.0488176959738374
0.0205,0.293165334313603,0.0497133385109951,0.690278068840068,-0.220670992054715,0.690278068851069,-0.220670992048629,0.293149098849368,0.0497324468960894
0.021,0.294202926847418,0.0506075504181309,0.688439883584549,-0.225723256416483,0.688439883596036,-0.225723256410678,0.294185722612425,0.0506271045863614
0.0215,0.295257684897701,0.0514814202010695,0.686564287802517,-0.230756888660196,0.686564287814462,-0.230756888654702,0.295239468076334,0.0515014381724404
0.022,0.296329177594345,0.0523347266455668,0.684651467950017,-0.235771609868974,0.684651467962389,-0.235771609863816,0.296309904340463,0.0523552282713103
0.0225,0.297416975389185,0.0531672597128977,0.682701616803697,-0.240767138622064,0.682701616816465,-0.240767138617264,0.297396601916345,0.0531882666661704
0.023,0.298520650385239,0.053978820213056,0.680714933535943,-0.245743191789455,0.680714933549076,-0.245743191785035,0.298499133054813,0.054000355973632
0.0235,0.299639776641134,0.0547692194695566,0.678691623728775,-0.250699485265476,0.678691623742242,-0.250699485261452,0.299617072047919,0.0547913093027926
0.024,0.300773930450809,0.0555382789774737,0.676631899336809,-0.25563573464382,0.67663189935058,-0.255635734640207,0.300749995505762,0.0555609499078421
0.0245,0.301922690598691,0.0562858300562894,0.674535978608169,-0.260551655836916,0.67453597862221,-0.260551655833725,0.301897482608448,0.0563091108357975
0.025,0.303085638590638,0.0570117134990812,0.672404085970937,-0.265446965642739,0.67240408598522,-0.265446965639981,0.303059115333505,0.0570356345709135
0.0255,0.304262358861,0.0577157792195126,0.670236451891652,-0.270321382262342,0.670236451906146,-0.270321382260025,0.304234478659151,0.0577403726772499
0.026,0.305452438956289,0.058397885898032,0.668033312711347,-0.275174625771354,0.668033312726023,-0.275174625769482,0.305423160743914,0.0584231854408094
0.0265,0.306655469695944,0.0590579006286165,0.665794910463823,-0.28000641854868,0.665794910478652,-0.280006418547259,0.306624753083145,0.0590839415125962
0.027,0.307871045310813,0.0596956985673317,0.663521492680076,-0.284816485665528,0.663521492695029,-0.284816485664557,0.307838850643066,0.0597225175538711
0.0275,0.30909876355998,0.060311162583903,0.661213312182203,-0.28960455523774,0.661213312197253,-0.289604555237222,0.309065051973023,0.0603387978848037
0.028,0.310338225826668,0.0609041829174294,0.658870626869559,-0.294370358744287,0.658870626884679,-0.294370358744219,0.310302959296683,0.0609326741376533
0.0285,0.311589037193929,0.0614746568372891,0.656493699499467,-0.299113631314563,0.656493699514633,-0.299113631314943,0.311552178582956,0.0615040449155295
0.029,0.312850806500953,0.0620224883102211,0.654082797464416,-0.303834111986996,0.654082797479601,-0.30383411198782,0.312812319597461,0.0620528154577115
0.0295,0.314123146380787,0.0625475876744891,0.65163819256731,-0.30853154394127,0.651638192582491,-0.308531543942533,0.314082995935388,0.0625788973124276
0.03,0.315405673280337,0.0630498713219571,0.6491601607961,-0.313205674706307,0.649160160811254,-0.313205674708003,0.315363825036635,0.0630822080179206
0.0305,0.31669800746351,0.0635292613888489,0.646648982098846,-0.317856256345986,0.646648982113951,-0.317856256348107,0.316654428184118,0.0635626707925568
0.031,0.317999772998406,0.0639856854558704,0.644104940160075,-0.322483045624397,0.64410494017511,-0.322483045626936,0.317954430486178,0.064020214234655
0.0315,0.319310597729449,0.064419076258327,0.641528322179145,-0.327085804152317,0.64152832219409,-0.327085804155264,0.319263460844007,0.0644547720326491
0.032,0.320630113235386,0.0648293714067827,0.638919418651161,-0.331664298516401,0.638919418665996,-0.331664298519746,0.320581151905029,0.0648662826861225
0.0325,0.321957954774051,0.0652165131187544,0.636278523150889,-0.336218300392496,0.636278523165596,-0.33621830039623,0.32190714000317,0.0652546892381922
0.033,0.323293761214824,0.0655804479618622,0.633605932120006,-0.340747586644349,0.633605932134568,-0.34074758664846,0.323241065086961,0.0656199390196476
0.0335,0.324637174959702,0.0659211266088029,0.630901944657958,-0.345251939408839,0.630901944672358,-0.345251939413315,0.324582570636394,0.0659619834051979
0.034,0.325987841853867,0.0662385036044471,0.628166862316604,-0.349731146168815,0.628166862330827,-0.349731146173645,0.325931303569451,0.066280777582111
0.0345,0.327345411086664,0.0665325371453139,0.625400988898809,-0.35418499981448,0.625400988912841,-0.354184999819651,0.327286914139226,0.0665762803314785
0.035,0.328709535083867,0.0668031888716141,0.622604630261072,-0.358613298694202,0.622604630274898,-0.358613298699701,0.328649055822526,0.0668484538222841
0.0355,0.330079869392094,0.0670504236720076,0.619778094120241,-0.363015846655531,0.61977809413385,-0.363015846661345,0.330017385200821,0.0670972634184027
0.036,0.33145607255622,0.0672742095011747,0.616921689864373,-0.367392453077173,0.616921689877751,-0.367392453083289,0.331391561834425,0.0673226774986067
0.0365,0.332837805990628,0.0674745172102458,0.614035728367717,-0.371742932892543,0.614035728380855,-0.371742932898947,0.332771248130715,0.067524667289616
0.037,0.33422473384509,0.0676513203901036,0.611120521809841,-0.376067106605533,0.611120521822727,-0.37606710661221,0.334156109207231,0.0677032067121784
0.0375,0.335616522866081,0.0678045952275269,0.608176383498848,-0.380364800299011,0.608176383511474,-0.380364800305948,0.335545812750425,0.0678582722401364
0.038,0.337012842254268,0.067934320374101,0.605203627698684,-0.38463584563658,0.605203627711039,-0.384635845643762,0.336940028870846,0.0679898427723871
0.0385,0.338413363518933,0.0680404768278004,0.602202569460452,-0.388880079858025,0.60220256947253,-0.388880079865438,0.338338429955482,0.0680978995176224
0.039,0.33981776033002,0.0681230478271019,0.599173524457726,-0.393097345768891,0.59917352446952,-0.393097345776521,0.339740690517984,0.0681824258916913
0.0395,0.341225708368513,0.0681820187574677,0.59611680882578,-0.39728749172456,0.596116808837283,-0.397287491732392,0.341146487047464,0.0682434074274071
0.04,0.342636885175783,0.0682173770700042,0.593032739004692,-0.401450371609181,0.593032739015899,-0.401450371617201,0.342555497856502,0.0682808316965885
0.0405,0.344050970002557,0.0682291122120797,0.589921631586265,-0.405585844809786,0.589921631597169,-0.40558584481798,0.343967402929029,0.0682946882441007
0.041,0.345467643658099,0.0682172155696631,0.586783803164695,-0.409693776185872,0.586783803175293,-0.409693776194225,0.345381883768655,0.0682849685336476
0.0415,0.346886588360187,0.0681816804211235,0.58361957019095,-0.413774036034743,0.583619570201239,-0.41377403604324,0.346798623248046,0.068251665905031
0.042,0.348307487586445,0.0681225019022069,0.580429248830781,-0.41782650005285,0.580429248840756,-0.417826500061478,0.348217305459874,0.0681947755425917
0.0425,0.349730025927547,0.0680396769818992,0.577213154826316,-0.421851049293379,0.577213154835977,-0.421851049302124,0.349637615569892,0.0681142944545149
0.043,0.351153888942791,0.067933204448867,0.573971603361189,-0.425847570120288,0.573971603370533,-0.425847570129136,0.35105923967259,0.0680102214626832
0.0435,0.352578763018529,0.0678030849081377,0.57070490892914,-0.429815954159015,0.570704908938165,-0.429815954167952,0.35248186464994,0.067882557202734
0.044,0.354004335229887,0.0676493207877029,0.567413385206035,-0.433756098244029,0.567413385214741,-0.433756098253041,0.353905178033643,0.0677313041339752
0.0445,0.355430293206206,0.0674719163546785,0.564097344925265,-0.437667904363416,0.564097344933652,-0.43766790437249,0.355328867871309,0.0675564665588002
0.045,0.356856325000607,0.0672708777406809,0.560757099756463,-0.441551279600657,0.560757099764531,-0.441551279609779,0.356752622596955,0.0673580506512358
0.0455,0.358282118964041,0.067046212976042,0.557392960187498,-0.445406136073752,0.557392960195247,-0.44540613608291,0.358176130906202,0.0671360644942484
0.046,0.359707363624189,0.0667979320325049,0.554005235409699,-0.449232390871847,0.554005235417132,-0.449232390881028,0.359599081636494,0.0668905181254255
0.0465,0.361131747569537,0.0665260468740112,0.550594233206268,-0.453029965989492,0.550594233213386,-0.453029965998684,0.361021163652679,0.0666214235906503
0.047,0.362554959338933,0.0662305715152103,0.547160259843835,-0.456798788258658,0.547160259850641,-0.456798788267848,0.362442065738241,0.0663287950053779
0.0475,0.363976687316904,0.0659115220872957,0.543703619967115,-0.460538789278654,0.54370361997361,-0.46053878928783,0.363861476492465,0.0660126486231193
0.048,0.365396619635017,0.0655689169107846,0.540224616496629,-0.464249905344038,0.540224616502818,-0.464249905353189,0.365279084233785,0.0656730029107375
0.0485,0.366814444079505,0.0652027765748521,0.536723550529453,-0.467932077370652,0.536723550535338,-0.467932077379765,0.36669457690956,0.0653098786301591
0.049,0.368229848005399,0.0648131240228234,0.533200721242948,-0.471585250819873,0.533200721248533,-0.471585250828939,0.368107642012484,0.0649232989261023
0.0495,0.369642518257371,0.0643999846434324,0.529656425801447,-0.475209375621197,0.529656425806736,-0.475209375630203,0.369517966503833,0.0645132894194224
0.05,0.371052141097461,0.0639633863674537,0.526090959265856,-0.478804406093231,0.526090959270854,-0.478804406102168,0.370925236743724,0.0640798783056744
0.0505,0.372458402139875,0.0635033597693132,0.522504614506134,-0.482370300863209,0.522504614510846,-0.482370300872065,0.372329138428549,0.0636230964584957
0.051,0.373860986293002,0.0630199381732867,0.518897682116625,-0.485907022785099,0.518897682121056,-0.485907022793866,0.373729356535725,0.0631429775374102
0.0515,0.375259577708771,0.0625131577638875,0.515270450334201,-0.489414538856409,0.515270450338356,-0.489414538865076,0.375125575275886,0.0626395580996587
0.052,0.376653859739487,0.0619830577000597,0.511623204959185,-0.492892820133742,0.511623204963071,-0.492892820142301,0.376517478052619,0.0621128777156591
0.0525,0.378043514902233,0.0614296802327833,0.507956229279034,-0.496341841647215,0.507956229282656,-0.496341841655656,0.377904747429857,0.0615629790877057
0.053,0.379428224850936,0.0608530708257031,0.504269803994727,-0.49976158231379,0.504269803998092,-0.499761582322105,0.379287065106981,0.0609899081715173
0.0535,0.38080767035616,0.0602532782783984,0.500564207149851,-0.503152024849598,0.500564207152964,-0.503152024857779,0.380664111901712,0.0603937143002445
0.054,0.38218153129269,0.0596303548519086,0.496839714062339,-0.506513155681336,0.496839714065208,-0.506513155689375,0.382035567740836,0.0597744503105542
0.0545,0.383549486634944,0.0589843563961346,0.493096597258834,-0.50984496485678,0.493096597261466,-0.509844964864669,0.383401111658788,0.0591321726704092
0.055,0.384911214460251,0.0583153424787395,0.489335126411655,-0.513147445954511,0.489335126414056,-0.513147445962243,0.38476042180413,0.0584669416081625
0.0555,0.386266391959995,0.057623376515175,0.485555568278317,-0.516420595992892,0.485555568280495,-0.51642059600046,0.386113175453906,0.0577788212425952
0.056,0.387614695458643,0.0569085258994584,0.4817581866436,-0.519664415338363,0.481758186645563,-0.519664415345761,0.387459049035891,0.0570678797135246
0.0565,0.38895580044063,0.0561708621353402,0.477943242264117,-0.522878907613122,0.477943242265871,-0.522878907620343,0.388797718158695,0.0563341893126166
0.057,0.39028938158509,0.0554104609674905,0.474110992815359,-0.526064079602234,0.474110992816912,-0.526064079609273,0.39012885764969,0.0555778266140402
0.0575,0.391615112808384,0.054627402512355,0.47026169284119,-0.529219941160237,0.470261692842551,-0.529219941167088,0.391452141600727,0.0547988726046038
0.058,0.392932667314378,0.0538217713883121,0.46639559370576,-0.532346505117282,0.466395593706936,-0.53234650512394,0.392767243421561,0.0539974128130244
0.0585,0.394241717652412,0.0529936568447957,0.4625129435478,-0.535443787184875,0.462512943548799,-0.535443787191336,0.394073835900935,0.0531735374379736
0.059,0.395541935782884,0.0521431528900224,0.458613987237286,-0.538511805861256,0.458613987238116,-0.538511805867514,0.395371591275226,0.0523273414745647
0.0595,0.396832993150349,0.0512703584169949,0.454698966334423,-0.54155058233647,0.454698966335093,-0.541550582342523,0.396660181304553,0.051458924838935
0.06,0.398114560764062,0.0503753773274369,0.450768119050939,-0.544560140397176,0.450768119051456,-0.544560140403019,0.397939277356258,0.050568392490596
0.0605,0.399386309285822,0.0494583186533326,0.44682168021364,-0.547540506331231,0.446821680214012,-0.547540506336861,0.399208550495623,0.0496558545522209
0.061,0.400647909125016,0.0485192966757437,0.442859881230215,-0.5504917088321,0.442859881230452,-0.550491708837515,0.400467671583698,0.0487214264265491
0.0615,0.401899030540723,0.0475584310405897,0.438882950057256,-0.553413778903132,0.438882950057364,-0.553413778908328,0.401716311382099,0.0477652289100921
0.062,0.403139343750725,0.0465758468710689,0.434891111170449,-0.556306749761728,0.434891111170437,-0.556306749766703,0.40295414066463,0.0467873883033329
0.0625,0.40436851904729,0.0455716748764251,0.430884585536938,-0.559170656743466,0.430884585536815,-0.559170656748218,0.404180830335543,0.0457880365171183
0.063,0.405586226919527,0.0445460514567513,0.426863590589803,-0.562005537206187,0.426863590589577,-0.562005537210715,0.405396051554289,0.044767311174946
0.0635,0.406792138182166,0.043499118803543,0.422828340204639,-0.564811430434106,0.422828340204318,-0.564811430438408,0.406599475866556,0.0437253557108626
0.064,0.40798592411055,0.0424310249957127,0.41877904467821,-0.567588377541958,0.418779044677802,-0.567588377546033,0.407790775341394,0.0426623194626928
