"Freq [thz]","re(St(P1,P1)) []","im(St(P1,P1)) []","re(St(P1,P2)) []","im(St(P1,P2)) []","re(St(P2,P1)) []","im(St(P2,P1)) []","re(St(P2,P2)) []","im(St(P2,P2)) []"
0,0.259076221416763,0,0.74093537277804,0,0.740935370551597,0,0.259076222642761,0
0.0005,0.259861897608402,0.0040868676286262,0.740136905158304,-0.00560539174848505,0.740136906533186,-0.00560539243000731,0.25986184380221,0.00408814978964329
0.001,0.260724796301974,0.00710310219207532,0.739270137370371,-0.010140785199566,0.739270137364397,-0.0101407852030565,0.260724666907176,0.00710571172793238
0.0015,0.261310122218956,0.00991916569594621,0.738676483068287,-0.0144802227253833,0.738676483063071,-0.0144802227260396,0.261309892394439,0.00992309624504362
0.002,0.261718672722227,0.0126741409878575,0.738256606808615,-0.0187551385849725,0.738256606805132,-0.0187551385849722,0.261718306164667,0.0126793898737783
0.0025,0.262049511636382,0.0154421658247035,0.737912998218273,-0.0230416225773173,0.737912998216218,-0.023041622577722,0.262048968682589,0.0154487331517012
0.003,0.262357187160079,0.0182326037502362,0.737591037594535,-0.0273500728561546,0.737591037593507,-0.027350072857365,0.262356427696433,0.0182404916872499
0.0035,0.26266889020594,0.0210412174665438,0.737263253235321,-0.0316766721166826,0.737263253235014,-0.0316766721188165,0.262667874269208,0.021050429468141
0.004,0.262998533497503,0.0238621927170565,0.736915495384289,-0.0360157720468447,0.736915495384494,-0.0360157720499023,0.262997221351762,0.0238727331609676
0.0045,0.263353584307857,0.0266905360603026,0.736540116432255,-0.0403624461047914,0.736540116432828,-0.0403624461087228,0.263351936431274,0.0267024100914741
0.005,0.263738232069388,0.0295223011976109,0.73613278414818,-0.0447127755417215,0.736132784149022,-0.044712775546454,0.26373620913658,0.0295355146588079
0.0055,0.264154905312546,0.0323543920175801,0.735690948444263,-0.0490636753795806,0.735690948445302,-0.0490636753850301,0.264152468185394,0.032368951416152
0.006,0.26460503475784,0.0351843387668014,0.735213067801123,-0.0534126794692021,0.735213067802307,-0.0534126794752777,0.264602144483986,0.0352002512569908
0.0065,0.265089456928149,0.0380101224942949,0.734698199329954,-0.0577577683181779,0.734698199331243,-0.0577577683247841,0.265086074744769,0.0380273958663953
0.007,0.265608637817323,0.0408300492786183,0.734145771342059,-0.0620972444871578,0.734145771343423,-0.0620972444941949,0.265604725158276,0.0408486919511632
0.0075,0.266162802176859,0.0436426624088003,0.733555451832116,-0.0664296450375204,0.733555451833529,-0.0664296450448847,0.266158320681938,0.0436626834220348
0.008,0.266752011131521,0.046446681246722,0.732927069551178,-0.0707536802979888,0.73292706955262,-0.0707536803055731,0.266746922656994,0.0464680902565289
0.0085,0.267376210393994,0.0492409583974942,0.732260565041242,-0.0750681908040765,0.732260565042695,-0.0750681908117696,0.267370477023927,0.049263765669369
0.009,0.268035261162679,0.052024449403521,0.731555959336687,-0.0793721167226095,0.731555959338135,-0.0793721167302956,0.268028845220709,0.0520486658063998
0.0095,0.268728960500454,0.054796191056547,0.730813333408875,-0.0836644758960979,0.730813333410304,-0.0836644759036577,0.268721824561796,0.0548218280563821
0.01,0.269457055144961,0.057555285699187,0.730032814326573,-0.0879443478945642,0.730032814327971,-0.0879443479018741,0.269449162048512,0.0575823553522274
0.0105,0.270221376680726,0.0603434965323794,0.729206837903096,-0.0922368357485584,0.729206837904027,-0.092236835753886,0.270212746845098,0.0603719786887764
0.011,0.271020840548094,0.0631189266071564,0.728344588463861,-0.09651616261734,0.728344588464556,-0.0965161626207351,0.271011436809844,0.0631488309543559
0.0115,0.271855157035382,0.0658810411283495,0.727446359497652,-0.100781977296156,0.727446359498319,-0.100781977297692,0.271844942169993,0.0659123780247913
0.012,0.272724026444064,0.0686293145398326,0.726512436329683,-0.105033928315238,0.726512436330509,-0.105033928315007,0.27271296318504,0.0686620950325376
0.0125,0.273627139480777,0.0713632307309547,0.725543098196951,-0.109271662965515,0.7255430981981,-0.109271662963622,0.273615190540477,0.0713974665718011
0.013,0.274564177651077,0.0740822832220801,0.724538620200269,-0.113494826711922,0.724538620201883,-0.113494826708485,0.274551305743152,0.0741179868826261
0.0135,0.275534813653665,0.0767859753296292,0.723499275097829,-0.117703062926796,0.723499275100027,-0.117703062921938,0.275520981516955,0.0768231600143627
0.014,0.276538711773855,0.0794738203111142,0.722425334920107,-0.121896012880972,0.722425334922989,-0.121896012874821,0.276523882197594,0.079512499969015
0.0145,0.277575528275146,0.0821453414907219,0.721317072397541,-0.126073315936815,0.721317072401188,-0.126073315929501,0.277559664125309,0.0821855308250493
0.015,0.278644911787815,0.0848000723660761,0.720174762201104,-0.130234609894594,0.720174762205578,-0.130234609886245,0.278627976034453,0.0848417868423056
0.0155,0.279746503693543,0.0874375566968701,0.718998682002081,-0.134379531450861,0.718998682007428,-0.134379531441603,0.279728459438928,0.087480812548722
0.016,0.280879938505156,0.0900573485761017,0.717789113361521,-0.138507716734373,0.717789113367774,-0.138507716724332,0.28086074901257,0.090102162809618
0.0165,0.282044844240645,0.0926590124846953,0.716546342462391,-0.142618801891406,0.71654634246957,-0.142618801880698,0.282024472963643,0.0927054028803473
0.017,0.283240842790722,0.0952421233303271,0.715270660698775,-0.146712423697857,0.715270660706886,-0.146712423686596,0.283219253402702,0.095290108443135
0.0175,0.284467550279243,0.0978062664712863,0.713962365136891,-0.15078822018041,0.713962365145934,-0.150788220168704,0.284444706703159,0.0978558656289673
0.018,0.285724577415909,0.100351037726238,0.712621758862478,-0.154845831233113,0.712621758872439,-0.154845831221062,0.285700443853965,0.1004022710254
0.0185,0.287011529840749,0.102876043370751,0.711249151228417,-0.158884899219129,0.711249151239279,-0.158884899206829,0.286986070803917,0.102928931671164
0.019,0.288328008459948,0.105380900121465,0.709844858015567,-0.16290506955024,0.709844858027304,-0.162905069537777,0.288301188797172,0.105435465038466
0.0195,0.289673609772681,0.107865235108764,0.708409201518671,-0.166905991238921,0.708409201531253,-0.166905991226378,0.289645394699615,0.107921499003843
0.02,0.29104792618866,0.110328685838815,0.706942510568057,-0.17088731741961,0.706942510581449,-0.170887317407061,0.291018281315825,0.110386671808464
0.0205,0.292450546336204,0.112770900145825,0.705445120496717,-0.174848705837185,0.70544512051088,-0.174848705824698,0.292419437696428,0.112830632008721
0.021,0.293881055360667,0.11519153613533,0.703917373061227,-0.178789819301748,0.703917373076119,-0.178789819289386,0.293848449435705,0.115253038417935
0.0215,0.295339035213157,0.117590262119326,0.702359616323947,-0.182710326109637,0.702359616339523,-0.182710326097455,0.295304898959384,0.117653560040019
0.022,0.296824064929499,0.119966756544027,0.700772204502975,-0.186609900431144,0.700772204519191,-0.186609900419193,0.296788365802598,0.120031875995834
0.0225,0.298335720899487,0.12232070791097,0.699155497795469,-0.190488222665908,0.699155497812277,-0.190488222654233,0.298298426878035,0.122387675443029
0.023,0.299873577126479,0.124651814692208,0.697509862179168,-0.19434497976717,0.69750986219652,-0.19434497975581,0.299834656734374,0.124720657490052
0.0235,0.301437205477453,0.126959785240242,0.695835669196276,-0.198179865536335,0.695835669214125,-0.198179865525326,0.301396627805126,0.127030531105032
0.024,0.303026175923684,0.129244337693355,0.694133295723256,-0.201992580889335,0.694133295741551,-0.201992580878706,0.302983910648032,0.129317015020151
0.0245,0.30464005677221,0.131505199876925,0.692403123729555,-0.205782834096375,0.69240312374825,-0.205782834086153,0.30459607417523,0.131579837632128
0.025,0.306278414888311,0.133742109201308,0.69064554002785,-0.209550340996628,0.690645540046897,-0.209550340986834,0.306232685874401,0.13381873689937
0.0255,0.307940815909242,0.135954812556785,0.688860936017979,-0.213294825189415,0.688860936037331,-0.213294825180068,0.307893312021146,0.136033460236304
0.026,0.309626824449468,0.138143066206081,0.687049707426413,-0.217016018203369,0.687049707446024,-0.217016018194483,0.309577517882865,0.138223764405387
0.0265,0.311336004297693,0.140306635674887,0.685212254042833,-0.220713659644998,0.685212254062658,-0.220713659636585,0.311284867914417,0.140389415407229
0.027,0.313067918605947,0.142445295640803,0.683348979455112,-0.224387497328,0.683348979475107,-0.224387497320068,0.313014925945857,0.142530188369225
0.0275,0.314822130071059,0.144558829821061,0.681460290783822,-0.228037287384595,0.681460290803945,-0.22803728737715,0.314767255362567,0.144645867433086
0.028,0.316598201108806,0.146647030859373,0.679546598417195,-0.231662794360074,0.679546598437404,-0.23166279435312,0.316541419278084,0.146736245641566
0.0285,0.318395694021038,0.148709700212194,0.677608315747314,-0.235263791291655,0.677608315767569,-0.23526379128519,0.318336980699934,0.148801124824716
0.029,0.320214171156118,0.150746648034669,0.675645858908198,-0.238840059772685,0.675645858928461,-0.23884005976671,0.320153502688809,0.150840315485887
0.0295,0.322053195062954,0.152757693066507,0.673659646516328,-0.242391390003153,0.673659646536562,-0.242391389997665,0.321990548511379,0.152853636687751
0.03,0.323912328638951,0.154742662517969,0.671650099414081,-0.245917580827379,0.67165009943425,-0.245917580822372,0.323847681787065,0.154840915938503
0.0305,0.325791135272177,0.156701391956161,0.669617640416455,-0.249418439759715,0.669617640436526,-0.249418439755182,0.325724466629063,0.15680198907844
0.031,0.327689178978033,0.158633725191774,0.66756269406141,-0.25289378299901,0.66756269408135,-0.252893782994943,0.327620467779934,0.158736700167045
0.0315,0.329606024530718,0.160539514166402,0.665485686364102,-0.256343435432549,0.665485686383881,-0.256343435428938,0.329535250742028,0.160644901370715
0.032,0.331541237589758,0.162418618840533,0.663387044575238,-0.259767230630106,0.663387044594826,-0.25976723062694,0.331468381903035,0.1625264528512
0.0325,0.33349438482187,0.164270907082302,0.661267196943731,-0.263165010828728,0.661267196963102,-0.263165010825997,0.333419428656918,0.164381222654865
0.033,0.335465034018416,0.166096254557071,0.659126572483837,-0.266536626908811,0.659126572502962,-0.2665366269065,0.335387959520496,0.166209086602804
0.0335,0.337452754208682,0.167894544617868,0.656965600746877,-0.269881938361977,0.656965600765734,-0.269881938360074,0.337373544245901,0.168009928181862
0.034,0.339457115769209,0.169665668196742,0.654784711597694,-0.273200813251264,0.654784711616259,-0.273200813249754,0.339375753929161,0.169783638436594
0.0345,0.341477690529408,0.171409523697013,0.652584334995894,-0.276493128164066,0.652584335014145,-0.276493128162933,0.341394161115103,0.171530115862153
0.035,0.343514051873648,0.17312601688647,0.65036490078198,-0.279758768158257,0.650364900799898,-0.279758768157487,0.343428339898793,0.173249266298135
0.0355,0.345565774840005,0.174815060791467,0.64812683846843,-0.28299762670191,0.648126838485995,-0.282997626701487,0.3454778660237,0.174941002823354
0.036,0.347632436215867,0.176476575591933,0.645870577035758,-0.286209605606969,0.645870577052954,-0.286209605606875,0.347542316976753,0.176605245651524
0.0365,0.349713614630539,0.178110488517255,0.643596544733624,-0.289394614957248,0.643596544750434,-0.289394614957468,0.34962127208047,0.178241922027848
0.037,0.351808890645013,0.179716733743024,0.641305168886995,-0.292552573031094,0.641305168903404,-0.292552573031611,0.351714312582289,0.179850966126446
0.0375,0.353917846839043,0.181295252288591,0.638996875707398,-0.29568340621902,0.638996875723394,-0.295683406219815,0.353821021741252,0.181432318948618
0.038,0.356040067895639,0.18284599191541,0.636672090109285,-0.298787048936625,0.636672090124855,-0.298787048937683,0.355940984912176,0.18298592822188
0.0385,0.35817514068312,0.184368907026121,0.634331235531494,-0.301863443533091,0.634331235546628,-0.301863443534393,0.358073789627402,0.184511748299738
0.039,0.360322654334808,0.18586395856433,0.631974733763845,-0.30491254019552,0.631974733778533,-0.30491254019705,0.360219025676242,0.186009740062152
0.0395,0.362482200326473,0.187331113915042,0.62960300477884,-0.307934296849395,0.629603004793073,-0.307934296851135,0.362376285182226,0.187479870816647
0.04,0.364653372551611,0.188770346805704,0.627216466568474,-0.310928679055398,0.627216466582246,-0.310928679057332,0.364545162678203,0.188922114200018
0.0405,0.36683576739463,0.190181637207813,0.624815534986152,-0.313895659902847,0.624815534999455,-0.313895659904958,0.366725255179398,0.190336450080586
0.041,0.369028983802011,0.191564971239042,0.622400623593675,-0.316835219899968,0.622400623606505,-0.316835219902238,0.368916162254482,0.191722864460957
0.0415,0.371232623351503,0.192920341065839,0.619972143513305,-0.31974734686124,0.619972143525657,-0.319747346863653,0.371117486094701,0.193081349381245
0.042,0.373446290319415,0.194247744806468,0.617530503284858,-0.322632035792023,0.61753050329673,-0.322632035794562,0.373328831581126,0.194411902822707
0.0425,0.375669591746022,0.195547186434437,0.615076108727821,-0.325489288770677,0.61507610873921,-0.325489288773327,0.375549806350069,0.195714528611761
0.043,0.377902137499162,0.196818675682296,0.612609362808443,-0.328319114828382,0.612609362819347,-0.328319114831126,0.377780020856686,0.196989236324332
0.0435,0.380143540336022,0.198062227945744,0.61013066551178,-0.331121529826835,0.610130665522201,-0.331121529829659,0.380019088436815,0.19823604119051
0.044,0.382393415963162,0.19927786418804,0.607640413718654,-0.33389655633404,0.60764041372859,-0.333896556336928,0.382266625367057,0.19945496399948
0.0445,0.384651383094786,0.200465610844672,0.605139001087481,-0.336644223498338,0.605139001096935,-0.336644223501276,0.384522250923142,0.200646031004688
0.045,0.386917063509298,0.201625499728263,0.602626817940928,-0.339364566920893,0.602626817949903,-0.339364566923866,0.386785587436572,0.201809273829222
0.0455,0.389190082104128,0.202757567933696,0.600104251157353,-0.34205762852676,0.600104251165851,-0.342057628529756,0.389056260349577,0.202944729371396
0.046,0.391470066948868,0.203861857743431,0.597571684066978,-0.344723456434743,0.597571684075003,-0.344723456437747,0.391333898268374,0.204052439710499
0.0465,0.393756649336709,0.204938416533002,0.595029496352742,-0.347362104826164,0.595029496360297,-0.347362104829164,0.39361813301475,0.205132452012707
0.047,0.396049463834197,0.205987296676688,0.592478063955782,-0.349973633812729,0.592478063962874,-0.349973633815712,0.395908599675965,0.206184818437136
0.0475,0.398348148329296,0.207008555453329,0.589917758985487,-0.352558109303611,0.589917758992122,-0.352558109306566,0.398204936652982,0.207209596042039
0.048,0.400652344077777,0.208002254952307,0.587348949634054,-0.355115602871919,0.587348949640237,-0.355115602874836,0.400506785707024,0.208206846691128
0.0485,0.402961695747927,0.208968461979667,0.584772000095498,-0.357646191620676,0.584772000101238,-0.357646191623542,0.402813792004454,0.209176636960026
0.049,0.405275851463576,0.209907247964388,0.582187270489051,-0.36014995804844,0.582187270494354,-0.360149958051246,0.405125604159984,0.210119038042846
0.0495,0.407594462845448,0.210818688864804,0.579595116786866,-0.362626989914716,0.579595116791741,-0.362626989917453,0.407441874278202,0.211034125658903
0.05,0.409917185050818,0.21170286507518,0.576995890745987,-0.365077380105255,0.576995890750442,-0.365077380107913,0.409762257993423,0.211921979959559
0.0505,0.412243676811505,0.212559861332453,0.574389939844488,-0.367501226497383,0.574389939848532,-0.367501226499954,0.412086414507858,0.212782685435216
0.051,0.414573600470164,0.213389766623147,0.571777607221726,-0.369898631825472,0.57177760722537,-0.369898631827949,0.414414006628095,0.213616330822467
0.0515,0.416906622014899,0.214192674090471,0.569159231622634,-0.372269703546655,0.569159231625888,-0.372269703549029,0.416744700799899,0.214423009011413
0.052,0.419242411112194,0.214968680941618,0.566535147345964,-0.374614553706897,0.566535147348839,-0.374614553709164,0.41907816714132,0.215202816953165
0.0525,0.421580641138146,0.21571788835529,0.563905684196427,-0.376933298807537,0.563905684198933,-0.376933298809689,0.421414079474113,0.215955855567549
0.053,0.423920989208023,0.216440401389443,0.561271167440633,-0.379226059672373,0.561271167442782,-0.379226059674406,0.42375211535347,0.216682229651035
0.0535,0.426263136204132,0.217136328889306,0.558631917766763,-0.381492961315417,0.558631917768566,-0.381492961317326,0.426091956096061,0.217382047784904
0.054,0.428606766802002,0.217805783395665,0.555988251247894,-0.383734132809379,0.555988251249364,-0.38373413281116,0.428433286806392,0.21805542224368
0.0545,0.430951569494893,0.218448881053452,0.553340479308887,-0.385949707154994,0.553340479310036,-0.385949707156643,0.430775796401474,0.218702468903856
0.055,0.433297236616624,0.219065741520663,0.550688908696769,-0.388139821151252,0.55068890869761,-0.388139821152768,0.433119177633815,0.219323307152926
0.0555,0.435643464362737,0.21965648787762,0.548033841454518,-0.390304615266628,0.548033841455064,-0.390304615268008,0.435463127112736,0.219918059798759
0.056,0.437989952809991,0.220221246536612,0.545375574898174,-0.392444233511369,0.545375574898438,-0.392444233512612,0.437807345324015,0.220486852979341
0.0565,0.440336405934206,0.220760147151943,0.54271440159719,-0.394558823310929,0.542714401597186,-0.394558823312034,0.44015153664788,0.22102981607291
0.057,0.442682531626458,0.221273322530404,0.540050609357942,-0.396648535380597,0.540050609357683,-0.396648535381564,0.442495409375331,0.221547081608511
0.0575,0.445028041707638,0.22176090854221,0.537384481210309,-0.398713523601402,0.53738448120981,-0.398713523602232,0.444838675722838,0.222038785176998
0.058,0.447372651941386,0.22222304403242,0.534716295397254,-0.400753944897342,0.534716295396528,-0.400753944898036,0.447181051845398,0.222505065342529
0.0585,0.44971608204542,0.222659870732876,0.532046325367296,-0.402769959113998,0.532046325366357,-0.402769959114559,0.44952225784798,0.222946063554551
0.059,0.452058055701256,0.223071533174685,0.52937483976982,-0.404761728898588,0.529374839768684,-0.404761728899017,0.451862017795355,0.223361924060338
0.0595,0.454398300562355,0.223458178601273,0.526702102453122,-0.406729419581501,0.526702102451802,-0.406729419581802,0.454200059720356,0.223752793818089
0.06,0.456736548260706,0.223819956882042,0.524028372465103,-0.408673199059376,0.524028372463614,-0.408673199059553,0.456536115630548,0.224118822410619
0.0605,0.459072534411855,0.224157020426658,0.521353904056548,-0.410593237679749,0.521353904054905,-0.410593237679807,0.458869921513358,0.224460161959686
0.061,0.46140599861841,0.224469524099994,0.518678946686887,-0.412489708127321,0.518678946685104,-0.412489708127265,0.461201217339658,0.22477696704096
0.0615,0.463736684472039,0.224757625137766,0.516003745032372,-0.414362785311878,0.516003745030465,-0.414362785311713,0.463529747065849,0.225069394599681
0.062,0.466064339553982,0.225021483062871,0.513328538996573,-0.4162126462579,0.513328538994555,-0.416212646257634,0.465855258634437,0.225337603867022
0.0625,0.468388715434091,0.225261259602476,0.510653563723125,-0.418039469995891,0.510653563721013,-0.418039469995531,0.46817750397315,0.225581756277198
0.063,0.470709567668443,0.225477118605864,0.507979049610645,-0.419843437455452,0.507979049608453,-0.419843437455006,0.470496238992599,0.22580201538532
0.0635,0.473026655795523,0.225669225963082,0.505305222329725,-0.42162473136013,0.505305222327466,-0.421624731359607,0.472811223582526,0.225998546786062
0.064,0.475339743331022,0.225837749524393,0.502632302841939,-0.423383536124064,0.502632302839631,-0.423383536123472,0.475122221606644,0.226171518033119
0.0645,0.477648597761272,0.225982859020579,0.499960507420787,-0.425120037750439,0.499960507418442,-0.425120037749789,0.477429000896117,0.226321098559522
